x,time,relative_density,v_perp,v_para,pitch_angle,v_perp_eV,v_para_eV,energy,energy_density,inval_lat
2,2.886,1,1451.99,347.234,76.5507,0.175802,0.010054,0.185856,0.185856,74.9982
3,5.751,1,2549.25,351.41,82.1513,0.541899,0.0102973,0.552196,0.552196,74.9964
4,8.563,1,3625.8,361.027,84.3137,1.09623,0.0108686,1.1071,1.1071,74.9946
5,11.276,1,4664.04,377.665,85.3706,1.81393,0.0118935,1.82582,1.82582,74.9928
6,13.846,1,5647.12,401.99,85.9283,2.65919,0.0134749,2.67266,2.67266,74.991
7,16.244,1,6563.94,433.778,86.2191,3.59273,0.0156903,3.60842,3.60842,74.9892
8,18.455,1,7408.79,472.119,86.3538,4.57709,0.0185866,4.59568,4.59568,74.9874
9,20.482,1,8182.84,515.86,86.3928,5.58346,0.02219,5.60565,5.60565,74.9856
10,22.337,1,8890.71,563.835,86.3712,6.59125,0.0265094,6.61776,6.61776,74.9838
11,24.035,1,9538.17,614.98,86.3109,7.58621,0.0315367,7.61775,7.61775,74.982
12,25.595,1,10132.5,668.495,86.2254,8.56112,0.0372641,8.59838,8.59838,74.9802
13,27.032,1,10679.5,723.66,86.1235,9.51044,0.0436681,9.5541,9.5541,74.9784
14,28.363,1,11185.7,780.042,86.0109,10.4334,0.0507378,10.4841,10.4841,74.9766
15,29.601,1,11656.1,837.258,85.8915,11.3293,0.058454,11.3878,11.3878,74.9748
16,30.756,1,12094.6,894.956,85.768,12.1976,0.066788,12.2644,12.2644,74.973
17,31.838,1,12504.9,952.924,85.6422,13.0393,0.0757202,13.115,13.115,74.9712
18,32.857,1,12890.9,1011.09,85.5152,13.8567,0.0852468,13.942,13.942,74.9694
19,33.819,1,13254.9,1069.29,85.3879,14.6504,0.095342,14.7458,14.7458,74.9676
20,34.729,1,13598.9,1127.34,85.2611,15.4207,0.105976,15.5267,15.5267,74.9658
21,35.594,1,13925.6,1185.3,85.1349,16.1704,0.117153,16.2875,16.2875,74.964
22,36.418,1,14236.4,1243.09,85.0097,16.9002,0.128855,17.0291,17.0291,74.9622
23,37.204,1,14532.5,1300.6,84.8859,17.6107,0.141053,17.7517,17.7517,74.9604
24,37.957,1,14815.9,1357.93,84.7633,18.3042,0.153761,18.4579,18.4579,74.9586
25,38.678,1,15086.9,1414.89,84.6423,18.98,0.166933,19.1469,19.1469,74.9568
26,39.371,1,15347.1,1471.6,84.5228,19.6403,0.180582,19.8209,19.8209,74.955
27,40.038,1,15597.3,1528.01,84.4048,20.2858,0.194691,20.4805,20.4805,74.9532
28,40.681,1,15838.1,1584.11,84.2883,20.9172,0.209251,21.1264,21.1264,74.9514
29,41.301,1,16070.1,1639.84,84.1735,21.5344,0.224232,21.7586,21.7586,74.9496
30,41.901,1,16294.3,1695.31,84.0602,22.1395,0.239658,22.3792,22.3792,74.9478
31,42.481,1,16510.8,1750.38,83.9484,22.7317,0.255483,22.9872,22.9872,74.946
32,43.044,1,16720.7,1805.23,83.838,23.3133,0.271745,23.5851,23.5851,74.9442
33,43.589,1,16923.6,1859.64,83.7293,23.8827,0.288372,24.171,24.171,74.9424
34,44.12,1,17121.1,1913.91,83.6216,24.4433,0.305448,24.7487,24.7487,74.9406
35,44.635,1,17312.4,1967.74,83.5156,24.9926,0.322872,25.3154,25.3154,74.9388
36,45.136,1,17498.3,2021.25,83.4109,25.5321,0.340669,25.8728,25.8728,74.937
37,45.625,1,17679.5,2074.57,83.3073,26.0636,0.35888,26.4225,26.4225,74.9352
38,46.101,1,17855.6,2127.52,83.2052,26.5856,0.377434,26.963,26.963,74.9334
39,46.565,1,18027.1,2180.13,83.1044,27.0987,0.396334,27.4951,27.4951,74.9316
40,47.018,1,18194.4,2232.47,83.0047,27.6038,0.41559,28.0194,28.0194,74.9298
41,47.461,1,18357.7,2284.57,82.9062,28.1017,0.435215,28.5369,28.5369,74.928
42,47.894,1,18517.2,2336.39,82.8088,28.592,0.455182,29.0471,29.0471,74.9262
43,48.317,1,18672.7,2387.87,82.7126,29.0744,0.475461,29.5499,29.5499,74.9245
44,48.731,1,18824.8,2439.07,82.6175,29.5499,0.496073,30.0459,30.0459,74.9227
45,49.137,1,18973.7,2490.09,82.5233,30.0193,0.517042,30.5364,30.5364,74.9209
46,49.535,1,19119.6,2540.87,82.4301,30.4825,0.538346,31.0208,31.0208,74.9191
47,49.924,1,19261.9,2591.25,82.3382,30.9381,0.559904,31.498,31.498,74.9173
48,50.307,1,19401.9,2641.57,82.2468,31.3893,0.581861,31.9712,31.9712,74.9155
49,50.682,1,19538.7,2691.53,82.1567,31.8338,0.604081,32.4378,32.4378,74.9137
50,51.05,1,19672.9,2741.24,82.0674,32.2724,0.626598,32.899,32.899,74.9119
51,51.411,1,19804.3,2790.65,81.9792,32.705,0.649391,33.3544,33.3544,74.9101
52,51.767,1,19933.7,2840.01,81.8915,33.1339,0.672567,33.8065,33.8065,74.9083
53,52.116,1,20060.5,2889.02,81.8049,33.5565,0.695979,34.2525,34.2525,74.9065
54,52.459,1,20184.9,2937.78,81.7191,33.974,0.719669,34.6937,34.6937,74.9047
55,52.797,1,20307.3,2986.4,81.634,34.3873,0.743691,35.131,35.131,74.9029
56,53.129,1,20427.4,3034.73,81.5498,34.7952,0.767955,35.5632,35.5632,74.9011
57,53.456,1,20545.5,3082.88,81.4664,35.1988,0.792516,35.9914,35.9914,74.8994
58,53.778,1,20661.7,3130.82,81.3836,35.598,0.817357,36.4154,36.4154,74.8976
59,54.095,1,20775.9,3178.54,81.3017,35.9927,0.842461,36.8351,36.8351,74.8958
60,54.407,1,20888.2,3226,81.2205,36.3827,0.867811,37.2506,37.2506,74.894
61,54.715,1,20998.8,3273.36,81.1399,36.7694,0.893473,37.6628,37.6628,74.8922
62,55.018,1,21107.6,3320.42,81.0601,37.1512,0.919349,38.0705,38.0705,74.8904
63,55.317,1,21214.8,3367.32,80.9809,37.5294,0.945507,38.4749,38.4749,74.8886
64,55.612,1,21320.4,3414.06,80.9024,37.904,0.971934,38.8759,38.8759,74.8868
65,55.903,1,21424.4,3460.6,80.8245,38.2748,0.998616,39.2734,39.2734,74.885
66,56.19,1,21526.9,3506.94,80.7472,38.6418,1.02554,39.6673,39.6673,74.8832
67,56.473,1,21627.8,3553.06,80.6707,39.0049,1.05269,40.0576,40.0576,74.8814
68,56.753,1,21727.5,3599.1,80.5945,39.3654,1.08015,40.4456,40.4456,74.8797
69,57.029,1,21825.7,3644.89,80.5191,39.7219,1.10781,40.8297,40.8297,74.8779
70,57.302,1,21922.6,3690.58,80.4441,40.0756,1.13575,41.2114,41.2114,74.8761
71,57.571,1,22018,3735.98,80.3699,40.4252,1.16387,41.5891,41.5891,74.8743
72,57.837,1,22112.3,3781.26,80.2961,40.772,1.19225,41.9642,41.9642,74.8725
73,58.1,1,22205.3,3826.39,80.2229,41.1158,1.22088,42.3367,42.3367,74.8707
74,58.36,1,22297.2,3871.38,80.1501,41.4567,1.24976,42.7064,42.7064,74.8689
75,58.616,1,22387.5,3916.02,80.0782,41.7932,1.27875,43.072,43.072,74.8671
76,58.87,1,22477,3960.67,80.0065,42.1281,1.30807,43.4362,43.4362,74.8653
77,59.121,1,22565.3,4005.12,79.9354,42.4598,1.3376,43.7974,43.7974,74.8636
78,59.37,1,22652.8,4049.56,79.8645,42.7898,1.36745,44.1573,44.1573,74.8618
79,59.615,1,22738.8,4093.61,79.7945,43.1153,1.39736,44.5126,44.5126,74.86
80,59.858,1,22824,4137.62,79.7248,43.4389,1.42756,44.8665,44.8665,74.8582
81,60.099,1,22908.4,4181.58,79.6554,43.7606,1.45806,45.2187,45.2187,74.8564
82,60.337,1,22991.6,4225.3,79.5866,44.079,1.48871,45.5678,45.5678,74.8546
83,60.572,1,23073.6,4268.77,79.5184,44.3942,1.5195,45.9137,45.9137,74.8528
84,60.805,1,23154.8,4312.17,79.4505,44.7074,1.55056,46.2579,46.2579,74.851
85,61.036,1,23235.3,4355.49,79.383,45.0185,1.58187,46.6004,46.6004,74.8493
86,61.264,1,23314.6,4398.53,79.3161,45.3262,1.61328,46.9395,46.9395,74.8475
87,61.491,1,23393.4,4441.67,79.2493,45.6333,1.64508,47.2783,47.2783,74.8457
88,61.715,1,23471.1,4484.51,79.1831,45.9368,1.67697,47.6138,47.6138,74.8439
89,61.937,1,23548,4527.24,79.1173,46.2383,1.70908,47.9474,47.9474,74.8421
90,62.156,1,23623.7,4569.65,79.0522,46.5363,1.74125,48.2775,48.2775,74.8403
91,62.374,1,23699,4612.13,78.9872,46.8334,1.77378,48.6072,48.6072,74.8385
92,62.59,1,23773.5,4654.48,78.9225,47.1284,1.8065,48.9349,48.9349,74.8368
93,62.804,1,23847.3,4696.69,78.8583,47.4211,1.83941,49.2605,49.2605,74.835
94,63.016,1,23920.2,4738.76,78.7944,47.7116,1.87251,49.5841,49.5841,74.8332
95,63.226,1,23992.3,4780.67,78.7309,47.9999,1.90578,49.9057,49.9057,74.8314
96,63.434,1,24063.7,4822.42,78.6679,48.2859,1.93921,50.2251,50.2251,74.8296
97,63.641,1,24134.6,4864.21,78.605,48.571,1.97296,50.5439,50.5439,74.8278
98,63.846,1,24204.8,4905.82,78.5425,48.8537,2.00687,50.8606,50.8606,74.8261
99,64.048,1,24273.8,4947.06,78.4808,49.1328,2.04075,51.1736,51.1736,74.8243
100,64.25,1,24342.8,4988.52,78.4188,49.4123,2.0751,51.4874,51.4874,74.8225
101,64.449,1,24410.6,5029.58,78.3576,49.688,2.1094,51.7974,51.7974,74.8207
102,64.647,1,24478,5070.66,78.2966,49.9628,2.144,52.1068,52.1068,74.8189
103,64.844,1,24544.9,5111.75,78.2357,50.2365,2.17888,52.4154,52.4154,74.8171
104,65.039,1,24611.1,5152.62,78.1753,50.5078,2.21387,52.7217,52.7217,74.8154
105,65.232,1,24676.6,5193.29,78.1153,50.7767,2.24895,53.0257,53.0257,74.8136
106,65.424,1,24741.6,5233.95,78.0555,51.0446,2.28431,53.3289,53.3289,74.8118
107,65.614,1,24805.8,5274.39,77.9961,51.31,2.31975,53.6297,53.6297,74.81
108,65.803,1,24869.6,5314.82,77.9369,51.5743,2.35544,53.9298,53.9298,74.8082
109,65.99,1,24932.7,5355.01,77.8782,51.8362,2.3912,54.2274,54.2274,74.8065
110,66.177,1,24995.6,5395.4,77.8194,52.0983,2.42741,54.5257,54.5257,74.8047
111,66.361,1,25057.5,5435.33,77.7613,52.3566,2.46347,54.8201,54.8201,74.8029
112,66.544,1,25119,5475.23,77.7035,52.6137,2.49977,55.1135,55.1135,74.8011
113,66.726,1,25180,5515.1,77.6458,52.8697,2.53631,55.406,55.406,74.7993
114,66.907,1,25240.6,5554.93,77.5883,53.1246,2.57307,55.6977,55.6977,74.7975
115,67.086,1,25300.5,5594.5,77.5313,53.3769,2.60986,55.9868,55.9868,74.7958
116,67.265,1,25360.3,5634.25,77.4741,53.6295,2.64708,56.2766,56.2766,74.794
117,67.441,1,25419,5673.5,77.4179,53.8781,2.68409,56.5622,56.5622,74.7922
118,67.617,1,25477.6,5712.93,77.3614,54.1269,2.72153,56.8484,56.8484,74.7904
119,67.792,1,25535.8,5752.31,77.3052,54.3745,2.75918,57.1337,57.1337,74.7886
120,67.965,1,25593.3,5791.4,77.2495,54.6196,2.79681,57.4164,57.4164,74.7869
121,68.137,1,25650.4,5830.43,77.194,54.8634,2.83463,57.698,57.698,74.7851
122,68.308,1,25707,5869.4,77.1387,55.106,2.87265,57.9787,57.9787,74.7833
123,68.478,1,25763.3,5908.31,77.0837,55.3474,2.91086,58.2583,58.2583,74.7815
124,68.646,1,25818.8,5946.91,77.0291,55.5862,2.94902,58.5352,58.5352,74.7797
125,68.814,1,25874.2,5985.67,76.9745,55.8252,2.98759,58.8128,58.8128,74.778
126,68.981,1,25929.3,6024.36,76.9201,56.0629,3.02634,59.0892,59.0892,74.7762
127,69.146,1,25983.6,6062.74,76.8662,56.2979,3.06501,59.3629,59.3629,74.7744
128,69.31,1,26037.5,6101.03,76.8125,56.5317,3.10386,59.6356,59.6356,74.7726
129,69.474,1,26091.3,6139.48,76.7587,56.7657,3.1431,59.9088,59.9088,74.7709
130,69.636,1,26144.4,6177.6,76.7055,56.9969,3.18225,60.1792,60.1792,74.7691
131,69.798,1,26197.4,6215.87,76.6522,57.2284,3.2218,60.4502,60.4502,74.7673
132,69.958,1,26249.7,6253.81,76.5995,57.4571,3.26125,60.7183,60.7183,74.7655
133,70.117,1,26301.6,6291.65,76.547,57.6845,3.30084,60.9853,60.9853,74.7637
134,70.276,1,26353.4,6329.64,76.4944,57.9121,3.34082,61.2529,61.2529,74.762
135,70.433,1,26404.5,6367.28,76.4423,58.1369,3.38067,61.5176,61.5176,74.7602
136,70.59,1,26455.6,6405.06,76.3902,58.3619,3.42091,61.7828,61.7828,74.7584
137,70.746,1,26506.2,6442.74,76.3383,58.5855,3.46128,62.0468,62.0468,74.7566
138,70.9,1,26556.1,6480.07,76.287,58.8065,3.5015,62.308,62.308,74.7549
139,71.054,1,26606,6517.53,76.2356,59.0275,3.5421,62.5696,62.5696,74.7531
140,71.207,1,26655.5,6554.88,76.1845,59.2472,3.58281,62.83,62.83,74.7513
141,71.359,1,26704.5,6592.11,76.1336,59.4656,3.62363,63.0892,63.0892,74.7495
142,71.511,1,26753.6,6629.47,76.0826,59.684,3.66482,63.3489,63.3489,74.7478
143,71.661,1,26801.9,6666.47,76.0322,59.8997,3.70584,63.6056,63.6056,74.746
144,71.811,1,26850.1,6703.59,75.9817,60.1155,3.74722,63.8627,63.8627,74.7442
145,71.959,1,26897.6,6740.33,75.9318,60.3285,3.78842,64.1169,64.1169,74.7424
146,72.107,1,26945.1,6777.2,75.8819,60.5416,3.82998,64.3716,64.3716,74.7407
147,72.255,1,26992.5,6814.19,75.8318,60.7548,3.8719,64.6267,64.6267,74.7389
148,72.401,1,27039.2,6850.81,75.7824,60.9652,3.91362,64.8788,64.8788,74.7371
149,72.546,1,27085.5,6887.28,75.7332,61.1742,3.9554,65.1296,65.1296,74.7353
150,72.691,1,27131.7,6923.87,75.684,61.3833,3.99755,65.3808,65.3808,74.7336
151,72.835,1,27177.6,6960.33,75.635,61.591,4.03975,65.6307,65.6307,74.7318
152,72.979,1,27223.4,6996.9,75.5859,61.7988,4.08232,65.8811,65.8811,74.73
153,73.121,1,27268.5,7033.08,75.5375,62.0037,4.12464,66.1283,66.1283,74.7282
154,73.263,1,27313.5,7069.36,75.489,62.2087,4.16731,66.376,66.376,74.7265
155,73.404,1,27358.2,7105.51,75.4407,62.4123,4.21003,66.6224,66.6224,74.7247
156,73.544,1,27402.5,7141.5,75.3928,62.6146,4.25279,66.8674,66.8674,74.7229
157,73.684,1,27446.7,7177.6,75.3448,62.8169,4.2959,67.1128,67.1128,74.7212
158,73.823,1,27490.6,7213.55,75.297,63.0177,4.33904,67.3568,67.3568,74.7194
159,73.961,1,27534.1,7249.35,75.2495,63.2172,4.38221,67.5994,67.5994,74.7176
160,74.099,1,27577.5,7285.26,75.202,63.4168,4.42573,67.8425,67.8425,74.7158
161,74.236,1,27620.5,7321,75.1547,63.6149,4.46927,68.0841,68.0841,74.7141
162,74.372,1,27663.2,7356.59,75.1078,63.8116,4.51282,68.3244,68.3244,74.7123
163,74.508,1,27705.8,7392.28,75.0607,64.0083,4.55672,68.5651,68.5651,74.7105
164,74.643,1,27748,7427.81,75.014,64.2037,4.60062,68.8043,68.8043,74.7087
165,74.777,1,27789.9,7463.17,74.9675,64.3976,4.64454,69.0421,69.0421,74.707
166,74.911,1,27831.7,7498.64,74.921,64.5915,4.68878,69.2803,69.2803,74.7052
167,75.044,1,27873.2,7533.93,74.8748,64.784,4.73302,69.517,69.517,74.7034
168,75.176,1,27914.2,7569.06,74.8288,64.9751,4.77726,69.7524,69.7524,74.7017
169,75.308,1,27955.3,7604.28,74.7828,65.1662,4.82183,69.988,69.988,74.6999
170,75.439,1,27995.9,7639.33,74.7371,65.3559,4.86638,70.2223,70.2223,74.6981
171,75.57,1,28036.5,7674.47,74.6914,65.5456,4.91125,70.4568,70.4568,74.6964
172,75.7,1,28076.8,7709.44,74.6459,65.7338,4.95611,70.69,70.69,74.6946
173,75.829,1,28116.6,7744.23,74.6007,65.9207,5.00094,70.9216,70.9216,74.6928
174,75.958,1,28156.4,7779.11,74.5555,66.1075,5.04609,71.1536,71.1536,74.691
175,76.086,1,28195.9,7813.81,74.5106,66.2929,5.09121,71.3841,71.3841,74.6893
176,76.214,1,28235.3,7848.6,74.4656,66.4783,5.13665,71.6149,71.6149,74.6875
177,76.341,1,28274.3,7883.21,74.4209,66.6622,5.18205,71.8443,71.8443,74.6857
178,76.468,1,28313.3,7917.9,74.3762,66.8462,5.22776,72.0739,72.0739,74.684
179,76.594,1,28351.9,7952.41,74.3318,67.0287,5.27342,72.3021,72.3021,74.6822
180,76.719,1,28390.2,7986.73,74.2876,67.2097,5.31904,72.5287,72.5287,74.6804
181,76.844,1,28428.4,8021.13,74.2435,67.3907,5.36496,72.7557,72.7557,74.6787
182,76.969,1,28466.6,8055.62,74.1993,67.5718,5.4112,72.983,72.983,74.6769
183,77.092,1,28504.1,8089.64,74.1557,67.7499,5.457,73.2069,73.2069,74.6751
184,77.216,1,28541.8,8124.02,74.1118,67.9295,5.50348,73.433,73.433,74.6734
185,77.339,1,28579.2,8158.2,74.0681,68.1076,5.54989,73.6575,73.6575,74.6716
186,77.461,1,28616.2,8192.19,74.0248,68.2842,5.59622,73.8805,73.8805,74.6698
187,77.583,1,28653.2,8226.26,73.9814,68.4609,5.64286,74.1037,74.1037,74.6681
188,77.704,1,28689.9,8260.12,73.9383,68.6361,5.68942,74.3255,74.3255,74.6663
189,77.825,1,28726.5,8294.07,73.8952,68.8112,5.73628,74.5475,74.5475,74.6645
190,77.945,1,28762.7,8327.81,73.8524,68.9849,5.78305,74.7679,74.7679,74.6628
191,78.065,1,28798.9,8361.63,73.8096,69.1586,5.83012,74.9887,74.9887,74.661
192,78.184,1,28834.7,8395.25,73.767,69.3308,5.87709,75.2079,75.2079,74.6592
193,78.303,1,28870.5,8428.94,73.7245,69.5029,5.92435,75.4273,75.4273,74.6575
194,78.422,1,28906.2,8462.71,73.6819,69.6751,5.97192,75.647,75.647,74.6557
195,78.54,1,28941.6,8496.26,73.6396,69.8458,6.01937,75.8651,75.8651,74.6539
196,78.657,1,28976.6,8529.61,73.5976,70.015,6.06672,76.0817,76.0817,74.6522
197,78.774,1,29011.6,8563.03,73.5556,70.1842,6.11435,76.2985,76.2985,74.6504
198,78.891,1,29046.6,8596.53,73.5135,70.3533,6.16228,76.5156,76.5156,74.6486
199,79.007,1,29081.2,8629.81,73.4718,70.521,6.21008,76.7311,76.7311,74.6469
200,79.122,1,29115.4,8662.87,73.4304,70.6872,6.25776,76.9449,76.9449,74.6451
201,79.238,1,29149.9,8696.29,73.3886,70.8548,6.30614,77.1609,77.1609,74.6433
202,79.352,1,29183.8,8729.21,73.3474,71.0195,6.35397,77.3734,77.3734,74.6416
203,79.467,1,29217.9,8762.48,73.3059,71.1856,6.4025,77.5881,77.5881,74.6398
204,79.581,1,29251.6,8795.54,73.2647,71.3502,6.45089,77.8011,77.8011,74.6381
205,79.694,1,29285,8828.37,73.2239,71.5133,6.49914,78.0124,78.0124,74.6363
206,79.807,1,29318.4,8861.27,73.183,71.6764,6.54767,78.2241,78.2241,74.6345
207,79.92,1,29351.7,8894.24,73.142,71.8394,6.59649,78.4359,78.4359,74.6328
208,80.032,1,29384.7,8926.98,73.1014,72.001,6.64514,78.6462,78.6462,74.631
209,80.144,1,29417.7,8959.79,73.0608,72.1625,6.69408,78.8566,78.8566,74.6292
210,80.255,1,29450.3,8992.37,73.0204,72.3226,6.74285,79.0654,79.0654,74.6275
211,80.366,1,29482.8,9025.02,72.9801,72.4826,6.7919,79.2745,79.2745,74.6257
212,80.477,1,29515.3,9057.73,72.9397,72.6425,6.84122,79.4837,79.4837,74.624
213,80.587,1,29547.5,9090.21,72.8996,72.801,6.89037,79.6914,79.6914,74.6222
214,80.697,1,29579.7,9122.75,72.8596,72.9594,6.9398,79.8992,79.8992,74.6204
215,80.806,1,29611.5,9155.06,72.8198,73.1164,6.98904,80.1054,80.1054,74.6187
216,80.915,1,29643.2,9187.43,72.78,73.2732,7.03855,80.3118,80.3118,74.6169
217,81.024,1,29674.9,9219.87,72.7402,73.4301,7.08834,80.5184,80.5184,74.6151
218,81.132,1,29706.3,9252.06,72.7007,73.5854,7.13793,80.7234,80.7234,74.6134
219,81.24,1,29737.6,9284.32,72.6612,73.7407,7.18779,80.9285,80.9285,74.6116
220,81.348,1,29768.9,9316.64,72.6217,73.896,7.23792,81.1339,81.1339,74.6099
221,81.455,1,29799.9,9348.72,72.5825,74.0497,7.28785,81.3376,81.3376,74.6081
222,81.562,1,29830.8,9380.86,72.5432,74.2034,7.33805,81.5415,81.5415,74.6063
223,81.668,1,29861.3,9412.76,72.5043,74.3556,7.38804,81.7437,81.7437,74.6046
224,81.774,1,29891.9,9444.72,72.4654,74.5078,7.43829,81.9461,81.9461,74.6028
225,81.88,1,29922.4,9476.73,72.4265,74.6599,7.4888,82.1487,82.1487,74.6011
226,81.985,1,29952.5,9508.5,72.3878,74.8105,7.53909,82.3496,82.3496,74.5993
227,82.09,1,29982.7,9540.33,72.3492,74.9611,7.58965,82.5507,82.5507,74.5975
228,82.195,1,30012.8,9572.21,72.3105,75.1116,7.64046,82.752,82.752,74.5958
229,82.299,1,30042.5,9603.85,72.2722,75.2606,7.69105,82.9516,82.9516,74.594
230,82.403,1,30072.2,9635.54,72.2339,75.4095,7.74189,83.1514,83.1514,74.5923
231,82.507,1,30101.9,9667.28,72.1955,75.5584,7.79299,83.3514,83.3514,74.5905
232,82.61,1,30131.2,9698.78,72.1574,75.7058,7.84385,83.5496,83.5496,74.5887
233,82.713,1,30160.5,9730.33,72.1194,75.8531,7.89497,83.7481,83.7481,74.587
234,82.815,1,30189.5,9761.63,72.0817,75.999,7.94584,83.9448,83.9448,74.5852
235,82.918,1,30218.7,9793.29,72.0435,76.1462,7.99746,84.1436,84.1436,74.5835
236,83.02,1,30247.7,9824.69,72.0058,76.2919,8.04883,84.3407,84.3407,74.5817
237,83.121,1,30276.2,9855.84,71.9683,76.4361,8.09995,84.5361,84.5361,74.58
238,83.223,1,30305,9887.35,71.9305,76.5817,8.15183,84.7336,84.7336,74.5782
239,83.324,1,30333.5,9918.6,71.8931,76.7258,8.20344,84.9293,84.9293,74.5764
240,83.424,1,30361.7,9949.6,71.8559,76.8684,8.25479,85.1232,85.1232,74.5747
241,83.525,1,30390.1,9980.95,71.8184,77.0124,8.3069,85.3193,85.3193,74.5729
242,83.625,1,30418.2,10012,71.7812,77.1549,8.35875,85.5136,85.5136,74.5712
243,83.724,1,30446,10042.9,71.7444,77.2959,8.41031,85.7062,85.7062,74.5694
244,83.824,1,30474,10074.1,71.7072,77.4382,8.46264,85.9009,85.9009,74.5677
245,83.923,1,30501.7,10105,71.6703,77.5791,8.5147,86.0938,86.0938,74.5659
246,84.022,1,30529.4,10136,71.6334,77.7199,8.56699,86.2869,86.2869,74.5641
247,84.12,1,30556.8,10166.7,71.5969,77.8592,8.619,86.4782,86.4782,74.5624
248,84.218,1,30584.1,10197.5,71.5603,77.9984,8.67125,86.6696,86.6696,74.5606
249,84.316,1,30611.3,10228.3,71.5238,78.1376,8.72373,86.8613,86.8613,74.5589
250,84.414,1,30638.6,10259.2,71.4871,78.2766,8.77646,87.0531,87.0531,74.5571
251,84.511,1,30665.5,10289.8,71.4509,78.4143,8.82889,87.2431,87.2431,74.5554
252,84.608,1,30692.4,10320.4,71.4146,78.5518,8.88155,87.4333,87.4333,74.5536
253,84.705,1,30719.2,10351.1,71.3783,78.6892,8.93445,87.6237,87.6237,74.5519
254,84.802,1,30746,10381.8,71.342,78.8266,8.98759,87.8142,87.8142,74.5501
255,84.898,1,30772.5,10412.3,71.3061,78.9625,9.04042,88.003,88.003,74.5484
256,84.994,1,30799,10442.8,71.2701,79.0984,9.09348,88.1918,88.1918,74.5466
257,85.089,1,30825.1,10473,71.2344,79.2327,9.14622,88.3789,88.3789,74.5449
258,85.185,1,30851.5,10503.7,71.1984,79.3684,9.19974,88.5681,88.5681,74.5431
259,85.28,1,30877.6,10534,71.1628,79.5026,9.25295,88.7555,88.7555,74.5413
260,85.374,1,30903.3,10564,71.1275,79.6353,9.30582,88.9411,88.9411,74.5396
261,85.469,1,30929.3,10594.4,71.0918,79.7694,9.35948,89.1288,89.1288,74.5378
262,85.563,1,30955,10624.6,71.0564,79.9019,9.41281,89.3147,89.3147,74.5361
263,85.657,1,30980.7,10654.8,71.021,80.0344,9.46637,89.5008,89.5008,74.5343
